#  E (eV)   dos(E)     Int dos(E) EFermi =    5.985 eV
  -6.000  0.2001E-01  0.2001E-03
  -5.990  0.2177E-01  0.4178E-03
  -5.980  0.2363E-01  0.6541E-03
  -5.970  0.2560E-01  0.9101E-03
  -5.960  0.2768E-01  0.1187E-02
  -5.950  0.2988E-01  0.1486E-02
  -5.940  0.3219E-01  0.1808E-02
  -5.930  0.3461E-01  0.2154E-02
  -5.920  0.3714E-01  0.2525E-02
  -5.910  0.3979E-01  0.2923E-02
  -5.900  0.4256E-01  0.3349E-02
  -5.890  0.4543E-01  0.3803E-02
  -5.880  0.4842E-01  0.4287E-02
  -5.870  0.5151E-01  0.4802E-02
  -5.860  0.5471E-01  0.5349E-02
  -5.850  0.5801E-01  0.5929E-02
  -5.840  0.6140E-01  0.6543E-02
  -5.830  0.6489E-01  0.7192E-02
  -5.820  0.6847E-01  0.7877E-02
  -5.810  0.7214E-01  0.8598E-02
  -5.800  0.7588E-01  0.9357E-02
  -5.790  0.7969E-01  0.1015E-01
  -5.780  0.8357E-01  0.1099E-01
  -5.770  0.8752E-01  0.1187E-01
  -5.760  0.9151E-01  0.1278E-01
  -5.750  0.9556E-01  0.1374E-01
  -5.740  0.9964E-01  0.1473E-01
  -5.730  0.1038E+00  0.1577E-01
  -5.720  0.1079E+00  0.1685E-01
  -5.710  0.1121E+00  0.1797E-01
  -5.700  0.1163E+00  0.1913E-01
  -5.690  0.1205E+00  0.2034E-01
  -5.680  0.1246E+00  0.2158E-01
  -5.670  0.1288E+00  0.2287E-01
  -5.660  0.1330E+00  0.2420E-01
  -5.650  0.1372E+00  0.2557E-01
  -5.640  0.1413E+00  0.2699E-01
  -5.630  0.1455E+00  0.2844E-01
  -5.620  0.1496E+00  0.2994E-01
  -5.610  0.1536E+00  0.3147E-01
  -5.600  0.1577E+00  0.3305E-01
  -5.590  0.1617E+00  0.3467E-01
  -5.580  0.1657E+00  0.3632E-01
  -5.570  0.1696E+00  0.3802E-01
  -5.560  0.1735E+00  0.3976E-01
  -5.550  0.1774E+00  0.4153E-01
  -5.540  0.1812E+00  0.4334E-01
  -5.530  0.1850E+00  0.4519E-01
  -5.520  0.1887E+00  0.4708E-01
  -5.510  0.1924E+00  0.4900E-01
  -5.500  0.1961E+00  0.5096E-01
  -5.490  0.1997E+00  0.5296E-01
  -5.480  0.2034E+00  0.5499E-01
  -5.470  0.2069E+00  0.5706E-01
  -5.460  0.2105E+00  0.5917E-01
  -5.450  0.2140E+00  0.6131E-01
  -5.440  0.2175E+00  0.6348E-01
  -5.430  0.2210E+00  0.6569E-01
  -5.420  0.2244E+00  0.6794E-01
  -5.410  0.2278E+00  0.7021E-01
  -5.400  0.2312E+00  0.7253E-01
  -5.390  0.2345E+00  0.7487E-01
  -5.380  0.2378E+00  0.7725E-01
  -5.370  0.2411E+00  0.7966E-01
  -5.360  0.2443E+00  0.8210E-01
  -5.350  0.2475E+00  0.8458E-01
  -5.340  0.2506E+00  0.8708E-01
  -5.330  0.2537E+00  0.8962E-01
  -5.320  0.2568E+00  0.9219E-01
  -5.310  0.2597E+00  0.9479E-01
  -5.300  0.2627E+00  0.9741E-01
  -5.290  0.2655E+00  0.1001E+00
  -5.280  0.2684E+00  0.1028E+00
  -5.270  0.2711E+00  0.1055E+00
  -5.260  0.2738E+00  0.1082E+00
  -5.250  0.2764E+00  0.1110E+00
  -5.240  0.2790E+00  0.1138E+00
  -5.230  0.2815E+00  0.1166E+00
  -5.220  0.2840E+00  0.1194E+00
  -5.210  0.2863E+00  0.1223E+00
  -5.200  0.2887E+00  0.1252E+00
  -5.190  0.2910E+00  0.1281E+00
  -5.180  0.2932E+00  0.1310E+00
  -5.170  0.2955E+00  0.1340E+00
  -5.160  0.2977E+00  0.1369E+00
  -5.150  0.2998E+00  0.1399E+00
  -5.140  0.3020E+00  0.1430E+00
  -5.130  0.3042E+00  0.1460E+00
  -5.120  0.3063E+00  0.1491E+00
  -5.110  0.3085E+00  0.1521E+00
  -5.100  0.3107E+00  0.1552E+00
  -5.090  0.3129E+00  0.1584E+00
  -5.080  0.3152E+00  0.1615E+00
  -5.070  0.3175E+00  0.1647E+00
  -5.060  0.3199E+00  0.1679E+00
  -5.050  0.3223E+00  0.1711E+00
  -5.040  0.3248E+00  0.1744E+00
  -5.030  0.3274E+00  0.1776E+00
  -5.020  0.3300E+00  0.1810E+00
  -5.010  0.3327E+00  0.1843E+00
  -5.000  0.3355E+00  0.1876E+00
  -4.990  0.3383E+00  0.1910E+00
  -4.980  0.3412E+00  0.1944E+00
  -4.970  0.3442E+00  0.1979E+00
  -4.960  0.3471E+00  0.2013E+00
  -4.950  0.3502E+00  0.2048E+00
  -4.940  0.3532E+00  0.2084E+00
  -4.930  0.3563E+00  0.2119E+00
  -4.920  0.3594E+00  0.2155E+00
  -4.910  0.3625E+00  0.2192E+00
  -4.900  0.3656E+00  0.2228E+00
  -4.890  0.3686E+00  0.2265E+00
  -4.880  0.3716E+00  0.2302E+00
  -4.870  0.3746E+00  0.2340E+00
  -4.860  0.3774E+00  0.2377E+00
  -4.850  0.3802E+00  0.2415E+00
  -4.840  0.3829E+00  0.2454E+00
  -4.830  0.3855E+00  0.2492E+00
  -4.820  0.3880E+00  0.2531E+00
  -4.810  0.3903E+00  0.2570E+00
  -4.800  0.3926E+00  0.2609E+00
  -4.790  0.3947E+00  0.2649E+00
  -4.780  0.3967E+00  0.2688E+00
  -4.770  0.3985E+00  0.2728E+00
  -4.760  0.4002E+00  0.2768E+00
  -4.750  0.4018E+00  0.2808E+00
  -4.740  0.4033E+00  0.2849E+00
  -4.730  0.4047E+00  0.2889E+00
  -4.720  0.4060E+00  0.2930E+00
  -4.710  0.4072E+00  0.2971E+00
  -4.700  0.4083E+00  0.3011E+00
  -4.690  0.4094E+00  0.3052E+00
  -4.680  0.4104E+00  0.3093E+00
  -4.670  0.4114E+00  0.3135E+00
  -4.660  0.4125E+00  0.3176E+00
  -4.650  0.4135E+00  0.3217E+00
  -4.640  0.4146E+00  0.3259E+00
  -4.630  0.4158E+00  0.3300E+00
  -4.620  0.4170E+00  0.3342E+00
  -4.610  0.4183E+00  0.3384E+00
  -4.600  0.4198E+00  0.3426E+00
  -4.590  0.4214E+00  0.3468E+00
  -4.580  0.4231E+00  0.3510E+00
  -4.570  0.4251E+00  0.3553E+00
  -4.560  0.4271E+00  0.3595E+00
  -4.550  0.4294E+00  0.3638E+00
  -4.540  0.4319E+00  0.3682E+00
  -4.530  0.4345E+00  0.3725E+00
  -4.520  0.4374E+00  0.3769E+00
  -4.510  0.4405E+00  0.3813E+00
  -4.500  0.4437E+00  0.3857E+00
  -4.490  0.4471E+00  0.3902E+00
  -4.480  0.4507E+00  0.3947E+00
  -4.470  0.4545E+00  0.3992E+00
  -4.460  0.4584E+00  0.4038E+00
  -4.450  0.4624E+00  0.4084E+00
  -4.440  0.4666E+00  0.4131E+00
  -4.430  0.4708E+00  0.4178E+00
  -4.420  0.4751E+00  0.4226E+00
  -4.410  0.4794E+00  0.4274E+00
  -4.400  0.4837E+00  0.4322E+00
  -4.390  0.4880E+00  0.4371E+00
  -4.380  0.4923E+00  0.4420E+00
  -4.370  0.4965E+00  0.4470E+00
  -4.360  0.5006E+00  0.4520E+00
  -4.350  0.5046E+00  0.4570E+00
  -4.340  0.5085E+00  0.4621E+00
  -4.330  0.5122E+00  0.4672E+00
  -4.320  0.5157E+00  0.4724E+00
  -4.310  0.5190E+00  0.4776E+00
  -4.300  0.5221E+00  0.4828E+00
  -4.290  0.5250E+00  0.4880E+00
  -4.280  0.5276E+00  0.4933E+00
  -4.270  0.5300E+00  0.4986E+00
  -4.260  0.5321E+00  0.5039E+00
  -4.250  0.5341E+00  0.5093E+00
  -4.240  0.5358E+00  0.5146E+00
  -4.230  0.5373E+00  0.5200E+00
  -4.220  0.5385E+00  0.5254E+00
  -4.210  0.5396E+00  0.5308E+00
  -4.200  0.5405E+00  0.5362E+00
  -4.190  0.5413E+00  0.5416E+00
  -4.180  0.5420E+00  0.5470E+00
  -4.170  0.5426E+00  0.5525E+00
  -4.160  0.5431E+00  0.5579E+00
  -4.150  0.5436E+00  0.5633E+00
  -4.140  0.5441E+00  0.5688E+00
  -4.130  0.5446E+00  0.5742E+00
  -4.120  0.5452E+00  0.5797E+00
  -4.110  0.5459E+00  0.5851E+00
  -4.100  0.5468E+00  0.5906E+00
  -4.090  0.5478E+00  0.5961E+00
  -4.080  0.5490E+00  0.6016E+00
  -4.070  0.5505E+00  0.6071E+00
  -4.060  0.5522E+00  0.6126E+00
  -4.050  0.5542E+00  0.6181E+00
  -4.040  0.5565E+00  0.6237E+00
  -4.030  0.5592E+00  0.6293E+00
  -4.020  0.5622E+00  0.6349E+00
  -4.010  0.5655E+00  0.6406E+00
  -4.000  0.5692E+00  0.6463E+00
  -3.990  0.5732E+00  0.6520E+00
  -3.980  0.5776E+00  0.6578E+00
  -3.970  0.5824E+00  0.6636E+00
  -3.960  0.5875E+00  0.6695E+00
  -3.950  0.5929E+00  0.6754E+00
  -3.940  0.5987E+00  0.6814E+00
  -3.930  0.6047E+00  0.6874E+00
  -3.920  0.6111E+00  0.6935E+00
  -3.910  0.6177E+00  0.6997E+00
  -3.900  0.6245E+00  0.7060E+00
  -3.890  0.6316E+00  0.7123E+00
  -3.880  0.6388E+00  0.7187E+00
  -3.870  0.6461E+00  0.7251E+00
  -3.860  0.6535E+00  0.7317E+00
  -3.850  0.6610E+00  0.7383E+00
  -3.840  0.6685E+00  0.7450E+00
  -3.830  0.6760E+00  0.7517E+00
  -3.820  0.6835E+00  0.7585E+00
  -3.810  0.6909E+00  0.7655E+00
  -3.800  0.6982E+00  0.7724E+00
  -3.790  0.7053E+00  0.7795E+00
  -3.780  0.7122E+00  0.7866E+00
  -3.770  0.7190E+00  0.7938E+00
  -3.760  0.7255E+00  0.8011E+00
  -3.750  0.7317E+00  0.8084E+00
  -3.740  0.7377E+00  0.8158E+00
  -3.730  0.7433E+00  0.8232E+00
  -3.720  0.7487E+00  0.8307E+00
  -3.710  0.7537E+00  0.8382E+00
  -3.700  0.7584E+00  0.8458E+00
  -3.690  0.7627E+00  0.8534E+00
  -3.680  0.7667E+00  0.8611E+00
  -3.670  0.7704E+00  0.8688E+00
  -3.660  0.7737E+00  0.8765E+00
  -3.650  0.7767E+00  0.8843E+00
  -3.640  0.7794E+00  0.8921E+00
  -3.630  0.7817E+00  0.8999E+00
  -3.620  0.7838E+00  0.9077E+00
  -3.610  0.7856E+00  0.9156E+00
  -3.600  0.7872E+00  0.9235E+00
  -3.590  0.7885E+00  0.9314E+00
  -3.580  0.7897E+00  0.9393E+00
  -3.570  0.7907E+00  0.9472E+00
  -3.560  0.7915E+00  0.9551E+00
  -3.550  0.7922E+00  0.9630E+00
  -3.540  0.7928E+00  0.9709E+00
  -3.530  0.7933E+00  0.9789E+00
  -3.520  0.7938E+00  0.9868E+00
  -3.510  0.7943E+00  0.9947E+00
  -3.500  0.7948E+00  0.1003E+01
  -3.490  0.7953E+00  0.1011E+01
  -3.480  0.7959E+00  0.1019E+01
  -3.470  0.7965E+00  0.1027E+01
  -3.460  0.7971E+00  0.1035E+01
  -3.450  0.7979E+00  0.1043E+01
  -3.440  0.7987E+00  0.1051E+01
  -3.430  0.7997E+00  0.1058E+01
  -3.420  0.8007E+00  0.1067E+01
  -3.410  0.8018E+00  0.1075E+01
  -3.400  0.8029E+00  0.1083E+01
  -3.390  0.8042E+00  0.1091E+01
  -3.380  0.8054E+00  0.1099E+01
  -3.370  0.8068E+00  0.1107E+01
  -3.360  0.8081E+00  0.1115E+01
  -3.350  0.8094E+00  0.1123E+01
  -3.340  0.8107E+00  0.1131E+01
  -3.330  0.8119E+00  0.1139E+01
  -3.320  0.8131E+00  0.1147E+01
  -3.310  0.8141E+00  0.1155E+01
  -3.300  0.8150E+00  0.1164E+01
  -3.290  0.8158E+00  0.1172E+01
  -3.280  0.8164E+00  0.1180E+01
  -3.270  0.8167E+00  0.1188E+01
  -3.260  0.8168E+00  0.1196E+01
  -3.250  0.8167E+00  0.1204E+01
  -3.240  0.8162E+00  0.1213E+01
  -3.230  0.8155E+00  0.1221E+01
  -3.220  0.8145E+00  0.1229E+01
  -3.210  0.8132E+00  0.1237E+01
  -3.200  0.8115E+00  0.1245E+01
  -3.190  0.8095E+00  0.1253E+01
  -3.180  0.8072E+00  0.1261E+01
  -3.170  0.8046E+00  0.1269E+01
  -3.160  0.8016E+00  0.1277E+01
  -3.150  0.7984E+00  0.1285E+01
  -3.140  0.7948E+00  0.1293E+01
  -3.130  0.7910E+00  0.1301E+01
  -3.120  0.7869E+00  0.1309E+01
  -3.110  0.7826E+00  0.1317E+01
  -3.100  0.7781E+00  0.1325E+01
  -3.090  0.7734E+00  0.1332E+01
  -3.080  0.7685E+00  0.1340E+01
  -3.070  0.7635E+00  0.1348E+01
  -3.060  0.7584E+00  0.1355E+01
  -3.050  0.7533E+00  0.1363E+01
  -3.040  0.7481E+00  0.1370E+01
  -3.030  0.7429E+00  0.1378E+01
  -3.020  0.7377E+00  0.1385E+01
  -3.010  0.7326E+00  0.1392E+01
  -3.000  0.7275E+00  0.1400E+01
  -2.990  0.7225E+00  0.1407E+01
  -2.980  0.7176E+00  0.1414E+01
  -2.970  0.7129E+00  0.1421E+01
  -2.960  0.7083E+00  0.1428E+01
  -2.950  0.7039E+00  0.1435E+01
  -2.940  0.6996E+00  0.1442E+01
  -2.930  0.6955E+00  0.1449E+01
  -2.920  0.6916E+00  0.1456E+01
  -2.910  0.6878E+00  0.1463E+01
  -2.900  0.6842E+00  0.1470E+01
  -2.890  0.6808E+00  0.1477E+01
  -2.880  0.6776E+00  0.1484E+01
  -2.870  0.6744E+00  0.1490E+01
  -2.860  0.6714E+00  0.1497E+01
  -2.850  0.6685E+00  0.1504E+01
  -2.840  0.6657E+00  0.1510E+01
  -2.830  0.6630E+00  0.1517E+01
  -2.820  0.6603E+00  0.1524E+01
  -2.810  0.6577E+00  0.1530E+01
  -2.800  0.6550E+00  0.1537E+01
  -2.790  0.6523E+00  0.1543E+01
  -2.780  0.6495E+00  0.1550E+01
  -2.770  0.6467E+00  0.1556E+01
  -2.760  0.6438E+00  0.1563E+01
  -2.750  0.6408E+00  0.1569E+01
  -2.740  0.6376E+00  0.1575E+01
  -2.730  0.6344E+00  0.1582E+01
  -2.720  0.6309E+00  0.1588E+01
  -2.710  0.6273E+00  0.1594E+01
  -2.700  0.6235E+00  0.1601E+01
  -2.690  0.6196E+00  0.1607E+01
  -2.680  0.6155E+00  0.1613E+01
  -2.670  0.6112E+00  0.1619E+01
  -2.660  0.6068E+00  0.1625E+01
  -2.650  0.6022E+00  0.1631E+01
  -2.640  0.5975E+00  0.1637E+01
  -2.630  0.5927E+00  0.1643E+01
  -2.620  0.5878E+00  0.1649E+01
  -2.610  0.5828E+00  0.1655E+01
  -2.600  0.5778E+00  0.1660E+01
  -2.590  0.5727E+00  0.1666E+01
  -2.580  0.5677E+00  0.1672E+01
  -2.570  0.5627E+00  0.1678E+01
  -2.560  0.5578E+00  0.1683E+01
  -2.550  0.5529E+00  0.1689E+01
  -2.540  0.5482E+00  0.1694E+01
  -2.530  0.5436E+00  0.1700E+01
  -2.520  0.5391E+00  0.1705E+01
  -2.510  0.5348E+00  0.1710E+01
  -2.500  0.5307E+00  0.1716E+01
  -2.490  0.5268E+00  0.1721E+01
  -2.480  0.5231E+00  0.1726E+01
  -2.470  0.5196E+00  0.1731E+01
  -2.460  0.5163E+00  0.1736E+01
  -2.450  0.5132E+00  0.1742E+01
  -2.440  0.5102E+00  0.1747E+01
  -2.430  0.5075E+00  0.1752E+01
  -2.420  0.5049E+00  0.1757E+01
  -2.410  0.5024E+00  0.1762E+01
  -2.400  0.5001E+00  0.1767E+01
  -2.390  0.4978E+00  0.1772E+01
  -2.380  0.4956E+00  0.1777E+01
  -2.370  0.4934E+00  0.1782E+01
  -2.360  0.4912E+00  0.1787E+01
  -2.350  0.4890E+00  0.1791E+01
  -2.340  0.4867E+00  0.1796E+01
  -2.330  0.4842E+00  0.1801E+01
  -2.320  0.4816E+00  0.1806E+01
  -2.310  0.4788E+00  0.1811E+01
  -2.300  0.4759E+00  0.1816E+01
  -2.290  0.4726E+00  0.1820E+01
  -2.280  0.4691E+00  0.1825E+01
  -2.270  0.4653E+00  0.1830E+01
  -2.260  0.4612E+00  0.1834E+01
  -2.250  0.4568E+00  0.1839E+01
  -2.240  0.4520E+00  0.1843E+01
  -2.230  0.4469E+00  0.1848E+01
  -2.220  0.4414E+00  0.1852E+01
  -2.210  0.4356E+00  0.1857E+01
  -2.200  0.4294E+00  0.1861E+01
  -2.190  0.4229E+00  0.1865E+01
  -2.180  0.4161E+00  0.1869E+01
  -2.170  0.4090E+00  0.1873E+01
  -2.160  0.4015E+00  0.1877E+01
  -2.150  0.3939E+00  0.1881E+01
  -2.140  0.3860E+00  0.1885E+01
  -2.130  0.3779E+00  0.1889E+01
  -2.120  0.3697E+00  0.1893E+01
  -2.110  0.3613E+00  0.1896E+01
  -2.100  0.3529E+00  0.1900E+01
  -2.090  0.3444E+00  0.1903E+01
  -2.080  0.3359E+00  0.1907E+01
  -2.070  0.3275E+00  0.1910E+01
  -2.060  0.3191E+00  0.1913E+01
  -2.050  0.3108E+00  0.1916E+01
  -2.040  0.3028E+00  0.1919E+01
  -2.030  0.2949E+00  0.1922E+01
  -2.020  0.2872E+00  0.1925E+01
  -2.010  0.2798E+00  0.1928E+01
  -2.000  0.2727E+00  0.1931E+01
  -1.990  0.2659E+00  0.1933E+01
  -1.980  0.2595E+00  0.1936E+01
  -1.970  0.2534E+00  0.1938E+01
  -1.960  0.2477E+00  0.1941E+01
  -1.950  0.2424E+00  0.1943E+01
  -1.940  0.2375E+00  0.1946E+01
  -1.930  0.2330E+00  0.1948E+01
  -1.920  0.2289E+00  0.1950E+01
  -1.910  0.2252E+00  0.1952E+01
  -1.900  0.2218E+00  0.1955E+01
  -1.890  0.2189E+00  0.1957E+01
  -1.880  0.2164E+00  0.1959E+01
  -1.870  0.2141E+00  0.1961E+01
  -1.860  0.2123E+00  0.1963E+01
  -1.850  0.2107E+00  0.1965E+01
  -1.840  0.2094E+00  0.1967E+01
  -1.830  0.2083E+00  0.1970E+01
  -1.820  0.2075E+00  0.1972E+01
  -1.810  0.2069E+00  0.1974E+01
  -1.800  0.2064E+00  0.1976E+01
  -1.790  0.2061E+00  0.1978E+01
  -1.780  0.2059E+00  0.1980E+01
  -1.770  0.2057E+00  0.1982E+01
  -1.760  0.2056E+00  0.1984E+01
  -1.750  0.2055E+00  0.1986E+01
  -1.740  0.2054E+00  0.1988E+01
  -1.730  0.2053E+00  0.1990E+01
  -1.720  0.2051E+00  0.1992E+01
  -1.710  0.2049E+00  0.1994E+01
  -1.700  0.2046E+00  0.1996E+01
  -1.690  0.2042E+00  0.1998E+01
  -1.680  0.2037E+00  0.2000E+01
  -1.670  0.2031E+00  0.2002E+01
  -1.660  0.2024E+00  0.2004E+01
  -1.650  0.2016E+00  0.2006E+01
  -1.640  0.2007E+00  0.2008E+01
  -1.630  0.1997E+00  0.2010E+01
  -1.620  0.1987E+00  0.2012E+01
  -1.610  0.1976E+00  0.2014E+01
  -1.600  0.1965E+00  0.2016E+01
  -1.590  0.1955E+00  0.2018E+01
  -1.580  0.1944E+00  0.2020E+01
  -1.570  0.1935E+00  0.2022E+01
  -1.560  0.1926E+00  0.2024E+01
  -1.550  0.1919E+00  0.2026E+01
  -1.540  0.1913E+00  0.2028E+01
  -1.530  0.1910E+00  0.2030E+01
  -1.520  0.1909E+00  0.2032E+01
  -1.510  0.1911E+00  0.2034E+01
  -1.500  0.1916E+00  0.2036E+01
  -1.490  0.1925E+00  0.2038E+01
  -1.480  0.1938E+00  0.2040E+01
  -1.470  0.1955E+00  0.2041E+01
  -1.460  0.1977E+00  0.2043E+01
  -1.450  0.2004E+00  0.2045E+01
  -1.440  0.2035E+00  0.2047E+01
  -1.430  0.2073E+00  0.2050E+01
  -1.420  0.2115E+00  0.2052E+01
  -1.410  0.2164E+00  0.2054E+01
  -1.400  0.2218E+00  0.2056E+01
  -1.390  0.2278E+00  0.2058E+01
  -1.380  0.2344E+00  0.2061E+01
  -1.370  0.2416E+00  0.2063E+01
  -1.360  0.2493E+00  0.2066E+01
  -1.350  0.2576E+00  0.2068E+01
  -1.340  0.2664E+00  0.2071E+01
  -1.330  0.2758E+00  0.2074E+01
  -1.320  0.2856E+00  0.2076E+01
  -1.310  0.2959E+00  0.2079E+01
  -1.300  0.3066E+00  0.2082E+01
  -1.290  0.3177E+00  0.2086E+01
  -1.280  0.3292E+00  0.2089E+01
  -1.270  0.3409E+00  0.2092E+01
  -1.260  0.3530E+00  0.2096E+01
  -1.250  0.3653E+00  0.2100E+01
  -1.240  0.3777E+00  0.2103E+01
  -1.230  0.3904E+00  0.2107E+01
  -1.220  0.4031E+00  0.2111E+01
  -1.210  0.4159E+00  0.2115E+01
  -1.200  0.4288E+00  0.2120E+01
  -1.190  0.4417E+00  0.2124E+01
  -1.180  0.4547E+00  0.2129E+01
  -1.170  0.4676E+00  0.2133E+01
  -1.160  0.4804E+00  0.2138E+01
  -1.150  0.4932E+00  0.2143E+01
  -1.140  0.5060E+00  0.2148E+01
  -1.130  0.5187E+00  0.2153E+01
  -1.120  0.5313E+00  0.2159E+01
  -1.110  0.5440E+00  0.2164E+01
  -1.100  0.5565E+00  0.2170E+01
  -1.090  0.5691E+00  0.2175E+01
  -1.080  0.5817E+00  0.2181E+01
  -1.070  0.5943E+00  0.2187E+01
  -1.060  0.6069E+00  0.2193E+01
  -1.050  0.6196E+00  0.2199E+01
  -1.040  0.6324E+00  0.2206E+01
  -1.030  0.6453E+00  0.2212E+01
  -1.020  0.6584E+00  0.2219E+01
  -1.010  0.6716E+00  0.2225E+01
  -1.000  0.6850E+00  0.2232E+01
  -0.990  0.6987E+00  0.2239E+01
  -0.980  0.7125E+00  0.2246E+01
  -0.970  0.7266E+00  0.2254E+01
  -0.960  0.7409E+00  0.2261E+01
  -0.950  0.7554E+00  0.2269E+01
  -0.940  0.7701E+00  0.2276E+01
  -0.930  0.7850E+00  0.2284E+01
  -0.920  0.8001E+00  0.2292E+01
  -0.910  0.8153E+00  0.2300E+01
  -0.900  0.8307E+00  0.2309E+01
  -0.890  0.8461E+00  0.2317E+01
  -0.880  0.8615E+00  0.2326E+01
  -0.870  0.8769E+00  0.2334E+01
  -0.860  0.8922E+00  0.2343E+01
  -0.850  0.9074E+00  0.2352E+01
  -0.840  0.9223E+00  0.2362E+01
  -0.830  0.9370E+00  0.2371E+01
  -0.820  0.9513E+00  0.2381E+01
  -0.810  0.9652E+00  0.2390E+01
  -0.800  0.9787E+00  0.2400E+01
  -0.790  0.9915E+00  0.2410E+01
  -0.780  0.1004E+01  0.2420E+01
  -0.770  0.1015E+01  0.2430E+01
  -0.760  0.1026E+01  0.2440E+01
  -0.750  0.1036E+01  0.2451E+01
  -0.740  0.1046E+01  0.2461E+01
  -0.730  0.1054E+01  0.2472E+01
  -0.720  0.1062E+01  0.2482E+01
  -0.710  0.1068E+01  0.2493E+01
  -0.700  0.1074E+01  0.2504E+01
  -0.690  0.1078E+01  0.2515E+01
  -0.680  0.1082E+01  0.2525E+01
  -0.670  0.1085E+01  0.2536E+01
  -0.660  0.1086E+01  0.2547E+01
  -0.650  0.1087E+01  0.2558E+01
  -0.640  0.1086E+01  0.2569E+01
  -0.630  0.1085E+01  0.2580E+01
  -0.620  0.1083E+01  0.2590E+01
  -0.610  0.1080E+01  0.2601E+01
  -0.600  0.1076E+01  0.2612E+01
  -0.590  0.1071E+01  0.2623E+01
  -0.580  0.1066E+01  0.2633E+01
  -0.570  0.1059E+01  0.2644E+01
  -0.560  0.1052E+01  0.2655E+01
  -0.550  0.1045E+01  0.2665E+01
  -0.540  0.1036E+01  0.2675E+01
  -0.530  0.1027E+01  0.2686E+01
  -0.520  0.1018E+01  0.2696E+01
  -0.510  0.1008E+01  0.2706E+01
  -0.500  0.9980E+00  0.2716E+01
  -0.490  0.9874E+00  0.2726E+01
  -0.480  0.9764E+00  0.2735E+01
  -0.470  0.9651E+00  0.2745E+01
  -0.460  0.9535E+00  0.2755E+01
  -0.450  0.9417E+00  0.2764E+01
  -0.440  0.9298E+00  0.2773E+01
  -0.430  0.9176E+00  0.2783E+01
  -0.420  0.9054E+00  0.2792E+01
  -0.410  0.8930E+00  0.2801E+01
  -0.400  0.8806E+00  0.2809E+01
  -0.390  0.8682E+00  0.2818E+01
  -0.380  0.8558E+00  0.2827E+01
  -0.370  0.8434E+00  0.2835E+01
  -0.360  0.8311E+00  0.2843E+01
  -0.350  0.8189E+00  0.2852E+01
  -0.340  0.8068E+00  0.2860E+01
  -0.330  0.7949E+00  0.2868E+01
  -0.320  0.7831E+00  0.2875E+01
  -0.310  0.7716E+00  0.2883E+01
  -0.300  0.7602E+00  0.2891E+01
  -0.290  0.7491E+00  0.2898E+01
  -0.280  0.7383E+00  0.2906E+01
  -0.270  0.7277E+00  0.2913E+01
  -0.260  0.7175E+00  0.2920E+01
  -0.250  0.7076E+00  0.2927E+01
  -0.240  0.6980E+00  0.2934E+01
  -0.230  0.6887E+00  0.2941E+01
  -0.220  0.6798E+00  0.2948E+01
  -0.210  0.6713E+00  0.2954E+01
  -0.200  0.6631E+00  0.2961E+01
  -0.190  0.6553E+00  0.2968E+01
  -0.180  0.6478E+00  0.2974E+01
  -0.170  0.6407E+00  0.2981E+01
  -0.160  0.6339E+00  0.2987E+01
  -0.150  0.6274E+00  0.2993E+01
  -0.140  0.6213E+00  0.2999E+01
  -0.130  0.6155E+00  0.3006E+01
  -0.120  0.6099E+00  0.3012E+01
  -0.110  0.6047E+00  0.3018E+01
  -0.100  0.5996E+00  0.3024E+01
  -0.090  0.5948E+00  0.3030E+01
  -0.080  0.5903E+00  0.3036E+01
  -0.070  0.5859E+00  0.3041E+01
  -0.060  0.5816E+00  0.3047E+01
  -0.050  0.5776E+00  0.3053E+01
  -0.040  0.5736E+00  0.3059E+01
  -0.030  0.5698E+00  0.3064E+01
  -0.020  0.5661E+00  0.3070E+01
  -0.010  0.5624E+00  0.3076E+01
  -0.000  0.5589E+00  0.3081E+01
   0.010  0.5554E+00  0.3087E+01
   0.020  0.5520E+00  0.3092E+01
   0.030  0.5486E+00  0.3098E+01
